5044 36.8910028 41.8015025 38.4420025 35.6825026 41.2030028 43.1035028 41.4640027 38.3645028 39.8250026 38.7955027 37.9360025 37.1565027 35.8670028 38.9675027 39.7480026 35.1785027 36.1290027 39.3995028 38.53100027 39.22105027 39.30110027 38.18115027 37.49120027 39.39125027 38.79130026 38.87135026 38.44140028 39.22145027 37.93150027 37.06155027 39.65160026 40.51165028 39.30170028 38.96175028 39.22180028 39.22185028 39.39190028 39.48195028 40.17200028 39.82205028 38.53210028 38.36215028 36.63220027 36.37225027 40.94230027 38.62235027 39.56240027 40.43245027 39.56250027 39.91255027 38.96260027 40.34265026 39.48270029 38.96275028 38.01280028 38.70285028 39.65290028 39.56295027 38.27300027 38.10305027 36.55310027 38.62315027 40.17320027 39.56325029 37.93330028 37.67335028 39.91340028 37.93345028 38.96350028 37.67355028 35.25360028 40.51365028 40.08370028 39.48375028 36.89380028 36.98385027 40.60390030 40.77395031 37.75400028 37.24405030 34.91410028 35.94415028 37.84420028 39.91425027 40.17430030 36.46435028 36.98440028 40.51445028 38.27450028 34.05455028 36.72460028 39.05465028 35.60470030 36.80475030 42.24480028 41.20485030 41.37490030 39.39495029 36.46500029 37.06505029 38.53510029 37.58515029 36.12520030 38.79525030 37.32530031 34.05535031 36.89540028 39.82545031 39.39550031 33.96555031 30.34560031 37.84565031 43.36570030 34.22575030 23.88580030 29.56585031 36.46590031 39.39595031 38.44600031 41.29605031 35.60610031 43.87615031 42.15620030 21.20625030 23.19630030 47.23635029 40.77640031 35.43645031 38.79650031 29.82655031 20.69660031 43.87665031 38.96670031 19.91675031 33.27680029 28.96685029 28.44690031 36.20695031 49.30700030 47.92705030 45.17710032 42.75715032 36.55720032 31.37725031 25.25730030 30.17735030 34.65740032 59.82745031 58.87750031 30.77755031 13.10760031 49.91765031 64.90770031 53.10775031 34.13780031 56.20785031 41.55790031 16.38795031 38.01800030 50.85805030 65.16810030 50.34815030 34.56820032 19.82825032 33.36830031 32.32835032 45.17840032 64.82845032 49.82850032 44.82855033 41.29860032 34.22865033 51.98870032 44.56875031 22.76880033 6.90885032 37.49890032 70.16895033 54.99900033 42.92905033 56.80910033 46.98915030 32.15920032 40.60925032 36.12930032 11.20935032 39.48940032 64.90945032 57.58950031 51.63955030 46.63960033 55.25965033 26.81970033 13.62975032 36.37980031 43.96985034 33.79990031 50.51995031 48.101000034 64.221005033 65.941010032 36.551015034 34.741020032 31.291025034 21.721030033 7.581035034 44.481040033 70.681045034 40.251050033 41.631055034 60.511060033 52.581065032 34.911070032 37.491075033 31.721080032 9.831085032 55.601090033 59.731095034 29.481100032 43.441105034 61.031110033 54.991115032 57.151120032 23.191125033 7.761130034 60.591135033 65.081140034 55.161145032 22.841150034 29.131155033 65.511160032 56.801165033 21.381170034 44.561175032 44.051180033 21.461185035 45.941190033 47.491195035 46.371200033 34.651205034 21.981210033 38.271215034 54.131220033 37.581225035 24.481230033 33.271235033 20.951240034 38.621245033 67.321250034 57.411255034 58.351260035 47.321265034 24.221270032 29.561275034 9.651280033 43.531285034 70.161290035 25.861295034 44.911300033 73.011305034 51.721310033 44.481315035 41.371320036 14.311325034 4.741330035 43.011335034 52.841340036 47.841345034 67.841350035 58.701355033 26.381360034 15.861365035 56.891370034 33.181375035 13.961380034 30.171385035 70.591390033 57.061395034 52.581400036 44.561405034 22.671410036 43.791415035 21.201420034 27.241425036 46.291430035 32.411435034 38.361440035 24.651445034 60.851450035 57.581455036 51.891460034 52.661465035 41.721470037 16.031475035 13.621480036 55.251485034 46.801490034 14.571495036 47.231500036 69.651505035 49.221510037 46.631515035 39.051520036 42.751525038 19.741530036 11.031535037 53.701540036 50.771545036 36.121550034 52.921555036 51.291560035 39.221565036 37.671570037 34.741575035 24.741580037 46.201585035 48.791590036 42.921595036 36.631600036 33.361605037 30.431610036 40.861615037 42.061620035 39.301625037 36.801630035 37.151635036 36.551640037 37.321645037 37.751650036 37.931655037 37.151660035 35.861665037 33.271670036 31.891675037 33.271680036 41.111685037 41.111690035 40.771695036 39.741700035 38.181705036 36.631710037 37.241715036 36.981720037 37.581725036 38.271730037 37.751735036 36.981740037 37.491745036 38.101750038 37.751755036 37.931760037 37.931765038 38.791770036 39.741775038 40.171780038 39.301785037 39.651790036 39.221795037 40.251800038 40.341805036 41.031810037 41.801815040 41.461820040 41.461825036 41.111830037 41.801835038 41.201840037 40.771845038 40.941850037 40.341855040 41.461860039 41.631865037 41.201870037 40.511875038 39.821880036 41.031885037 37.931890038 38.621895037 42.241900039 41.801905037 41.801910038 41.291915039 40.601920037 40.251925038 40.681930039 39.561935037 39.911940038 40.081945039 40.171950037 40.341955038 39.911960039 38.531965037 38.531970038 38.701975039 40.171980040 39.821985038 38.791990039 37.931995040 39.052000038 39.912005039 39.132010037 39.222015038 38.532020039 38.872025040 37.842030038 38.702035039 38.102040040 39.392045038 38.622050041 37.752055039 36.632060040 38.272065038 38.362070039 38.012075039 38.272080039 37.842085040 37.672090038 37.412095040 37.492100039 37.412105040 37.322110038 38.362115040 38.442120041 38.182125039 36.632130040 36.722135041 37.322140039 38.792145041 37.752150039 37.932155039 38.702160040 38.182165041 37.672170039 36.892175040 36.552180038 36.802185039 37.242190040 37.752195039 38.102200040 37.412205039 36.032210040 38.182215040 37.752220041 38.102225040 36.722230039 37.152235040 36.372240041 38.012245040 37.752250041 37.322255039 36.982260040 36.292265041 37.492270039 35.862275039 36.802280040 35.512285040 38.872290041 34.912295040 31.812300041 34.222305041 36.292310040 38.182315041 33.362320041 31.292325039 34.132330039 36.892335040 35.772340041 31.892345042 42.322350040 41.112355041 33.362360039 36.372365040 33.362370042 41.462375040 17.322380041 32.582385042 51.462390040 31.552395042 40.772400040 55.162405042 55.162410042 42.582415040 37.062420041 30.082425042 27.152430041 25.252435042 29.562440041 32.502445042 47.152450041 71.462455042 53.012460042 50.602465043 23.882470041 11.642475042 61.282480042 51.462485042 15.262490043 48.872495042 57.752500043 59.222505042 53.272510042 54.732515043 57.842520042 23.792525043 43.182530042 70.252535043 34.992540042 20.262545042 36.372550042 44.222555043 61.282560041 39.482565043 26.462570041 64.902575042 72.922580042 31.892585042 17.412590043 54.912595042 35.082600043 15.772605041 29.822610042 71.632615042 46.892620042 30.082625042 63.782630042 53.182635042 27.752640043 9.312645044 39.822650042 56.632655042 46.552660042 36.202665043 48.182670041 52.582675042 24.652680043 47.842685041 44.992690042 59.562695042 33.792700042 16.292705042 41.292710043 50.172715044 31.462720042 25.002725044 43.792730043 28.702735042 53.872740042 58.532745042 35.772750043 46.462755045 36.202760042 10.342765042 57.232770043 68.872775042 20.952780043 37.062785044 66.282790042 33.622795042 47.492800044 27.502805042 52.582810044 60.422815042 24.912820044 31.722825042 52.492830042 16.462835042 18.792840042 63.272845042 36.122850044 62.232855045 64.222860043 40.602865044 30.772870043 20.002875044 36.122880045 17.672885045 60.252890044 49.482895045 15.082900045 36.292905045 43.012910045 31.892915045 47.412920045 51.462925045 68.092930045 53.182935045 40.432940046 15.602945044 28.362950045 27.062955044 27.412960045 39.912965045 33.362970045 71.112975046 68.782980044 46.202985045 19.822990045 32.502995046 43.963000045 39.303005045 22.583010045 18.623015045 61.973020044 45.863025045 47.673030046 50.853035045 20.263040045 49.303045046 57.663050045 21.033055046 16.033060045 46.983065045 47.233070045 26.123075045 38.103080046 45.513085045 51.803090046 38.703095044 47.413100045 46.633105046 36.123110045 10.433115046 47.673120045 38.443125046 10.953130044 34.223135045 72.833140045 75.593145045 60.253150047 48.873155045 40.083160046 38.363165044 36.293170045 33.103175046 32.753180045 32.673185046 32.753190045 33.623195046 32.243200047 31.633205045 34.913210046 34.393215045 31.373220045 25.943225046 36.723230047 38.273235046 33.873240048 32.843245047 37.243250045 37.583255046 36.893260045 36.123265046 35.433270048 35.083275046 34.483280047 34.393285045 35.083290045 34.913295047 34.993300045 35.683305047 35.863310045 36.123315047 35.863320045 35.433325045 35.343330045 35.863335046 35.433340047 35.173345048 34.993350046 35.603355048 35.773360046 34.823365048 36.983370046 37.243375048 37.413380046 36.633385048 35.773390048 35.173395048 36.553400049 36.893405048 36.293410047 36.373415048 35.863420048 36.123425049 36.633430048 36.033435048 34.823440049 35.173445047 36.033450048 36.553455049 35.683460048 37.063465048 36.293470047 36.293475049 36.633480048 35.773485049 35.863490047 36.633495048 37.493500049 37.323505048 37.583510049 37.753515048 37.153520049 37.753525048 36.803530049 36.803535048 37.753540049 38.183545048 37.583550049 36.983555048 36.803560050 37.753565049 37.753570048 36.723575049 37.583580048 38.273585049 38.363590048 38.273595049 38.183600047 37.583605049 37.753610047 37.933615048 38.623620050 37.933625048 38.013630049 36.633635048 37.243640049 37.673645047 37.843650048 37.673655048 37.933660049 38.363665048 37.933670049 38.363675048 38.533680048 38.363685049 38.183690048 37.583695049 38.273700048 37.843705050 37.753710051 38.623715050 38.103720049 37.243725051 38.103730048 37.933735048 38.873740050 38.873745048 39.393750049 38.533755051 37.933760049 36.893765048 38.443770048 38.793775049 38.363780048 38.533785051 38.363790049 37.583795051 38.183800048 38.183805049 37.413810051 39.053815049 38.013820051 38.703825049 38.703830050 38.363835051 37.583840052 37.753845050 36.293850051 34.823855051 38.443860051 37.243865049 39.393870051 33.363875051 31.553880051 31.033885051 19.483890052 37.063895050 41.983900051 27.753905052 28.013910051 28.013915051 22.763920052 50.083925051 38.183930051 23.273935050 24.913940051 37.153945051 71.023950050 60.773955051 67.063960052 50.853965051 36.803970051 39.743975052 43.533980050 50.853985051 27.753990052 51.803995051 62.324000051 61.464005053 45.174010051 39.824015052 23.104020051 40.434025052 71.024030051 77.664035052 40.944040050 29.314045052 9.144050051 41.984055052 68.014060051 71.114065053 60.344070051 23.104075052 7.584080053 47.754085051 46.374090051 52.154095051 76.204100051 48.444105052 51.634110050 52.234115051 22.934120052 8.964125053 33.964130051 25.434135053 27.324140051 63.274145052 70.514150051 49.304155052 43.964160053 24.824165051 28.274170053 57.324175051 72.324180051 50.774185051 15.954190053 37.754195051 18.794200053 37.754205051 58.444210053 54.654215051 42.494220052 71.024225053 47.674230051 42.924235051 29.654240052 12.844245051 9.914250051 22.074255052 69.824260053 48.364265051 29.314270053 71.024275051 50.254280053 59.304285054 49.394290051 16.204295053 42.584300054 47.924305052 13.364310054 43.364315054 49.134320054 72.584325053 50.424330054 45.604335054 57.844340053 35.344345054 10.174350054 57.324355054 47.234360055 13.794365054 62.234370054 65.254375055 36.554380053 50.514385054 50.684390054 24.134395054 39.744400053 41.634405054 37.244410054 43.704415055 13.794420053 42.924425054 75.684430054 63.014435054 52.664440054 59.824445054 47.414450054 15.344455054 7.844460054 60.854465055 52.234470053 50.084475054 23.274480054 53.614485055 39.224490053 11.124495054 46.294500055 73.014505053 33.104510054 43.614515055 21.034520053 23.194525054 21.294530055 62.064535053 80.684540054 58.184545054 36.554550055 31.204555054 32.064560054 10.774565054 62.664570054 64.224575054 20.004580054 52.234585055 63.534590053 43.104595054 25.944600054 57.154605055 40.604610054 11.464615054 28.964620054 71.804625054 50.344630055 31.554635056 21.294640054 59.654645054 54.914650055 35.434655056 38.364660054 38.104665054 27.934670054 16.984675054 27.844680054 15.864685055 30.434690057 45.604695055 42.584700054 35.084705054 34.824710056 36.374715054 35.604720056 34.224725054 34.314730054 35.864735054 36.034740054 33.364745055 31.814750056 35.174755054 38.704760054 37.414765054 37.934770055 36.984775056 36.984780057 36.204785054 38.014790057 37.934795057 37.674800056 38.014805057 37.584810057 36.984815055 37.674820057 37.674825057 37.844830058 37.754835058 37.754840057 38.184845058 38.874850057 37.844855058 39.054860057 38.624865057 38.014870058 37.754875056 38.624880057 38.364885058 38.704890056 39.484895057 39.304900056 39.744905057 39.744910056 39.994915057 39.824920058 39.224925057 39.224930058 40.254935057 40.254940057 38.874945056 40.174950057 40.434955058 39.824960056 40.254965057 40.254970058 39.054975057 40.514980057 41.114985057 40.864990058 40.344995056 40.775000057 40.94